100
0;0;0;0;0;0;0;0;0;0;0;0;0;0;0;0;0;0;0;0;0;0;0;0;0;0;0;0;0;0;0;0;0;0;10.345;310.34;610.34;910.34;1210.3;1114.7;814.66;514.66;214.66;-85.345;10.345;0;0;0;0;0;0;0;229.06;314.27;372.68;415.74;447.9;471.4;487.5;496.9;500;496.9;487.5;471.4;447.9;415.74;372.68;314.27;229.06;0;0;0;0;0;0;0;0;0;0;0;0;0;0;0;0;0;0;0;0;0;0;0;0;0;0;0;0;0;0;0;0;0;0;20.69;320.69;620.69;920.69;1220.7;1104.3;804.31;504.31;204.31;-95.69;20.69;0;0;0;0;0;0;0;229.06;314.27;372.68;415.74;447.9;471.4;487.5;496.9;500;496.9;487.5;471.4;447.9;415.74;372.68;314.27;229.06;0;0;0;0;0;0;0;0;0;0;0;0;0;0;0;0;0;0;0;0;0;0;0;0;0;0;0;0;0;0;0;0;0;0;31.034;331.03;631.03;931.03;1231;1094;793.97;493.97;193.97;-106.03;31.034;0;0;0;0;0;0;0;229.06;314.27;372.68;415.74;447.9;471.4;487.5;496.9;500;496.9;487.5;471.4;447.9;415.74;372.68;314.27;229.06;0;0;0;0;0;0;0;0;0;0;0;0;0;0;0;0;0;0;0;0;0;0;0;0;0;0;0;0;0;0;0;0;0;0;41.379;341.38;641.38;941.38;1241.4;1083.6;783.62;483.62;183.62;-116.38;41.379;0;0;0;0;0;0;0;229.06;314.27;372.68;415.74;447.9;471.4;487.5;496.9;500;496.9;487.5;471.4;447.9;415.74;372.68;314.27;229.06;0;0;0;0;0;0;0;0;0;0;0;0;0;0;0;0;0;0;0;0;0;0;0;0;0;0;0;0;0;0;0;0;0;0;51.724;351.72;651.72;951.72;1251.7;1073.3;773.28;473.28;173.28;-126.72;51.724;0;0;0;0;0;0;0;229.06;314.27;372.68;415.74;447.9;471.4;487.5;496.9;500;496.9;487.5;471.4;447.9;415.74;372.68;314.27;229.06;0;0;0;0;0;0;0;0;0;0;0;0;0;0;0;0;0;0;0;0;0;0;0;0;0;0;0;0;0;0;0;0;0;0;62.069;362.07;662.07;962.07;1262.1;1062.9;762.93;462.93;162.93;-137.07;62.069;0;0;0;0;0;0;0;229.06;314.27;372.68;415.74;447.9;471.4;487.5;496.9;500;496.9;487.5;471.4;447.9;415.74;372.68;314.27;229.06;0;0;0;0;0;0;0;0;0;0;0;0;0;0;0;0;0;0;0;0;0;0;0;0;0;0;0;0;0;0;0;0;0;0;72.414;372.41;672.41;972.41;1272.4;1052.6;752.59;452.59;152.59;-147.41;72.414;0;0;0;0;0;0;0;229.06;314.27;372.68;415.74;447.9;471.4;487.5;496.9;500;496.9;487.5;471.4;447.9;415.74;372.68;314.27;229.06;0;0;0;0;0;0;0;0;0;0;0;0;0;0;0;0;0;0;0;0;0;0;0;0;0;0;0;0;0;0;0;0;0;0;82.759;382.76;682.76;982.76;1282.8;1042.2;742.24;442.24;142.24;-157.76;82.759;0;0;0;0;0;0;0;229.06;314.27;372.68;415.74;447.9;471.4;487.5;496.9;500;496.9;487.5;471.4;447.9;415.74;372.68;314.27;229.06;0;0;0;0;0;0;0;0;0;0;0;0;0;0;0;0;0;0;0;0;0;0;0;0;0;0;0;0;0;0;0;0;0;0;93.103;393.1;693.1;993.1;1293.1;1031.9;731.9;431.9;131.9;-168.1;93.103;0;0;0;0;0;0;0;229.06;314.27;372.68;415.74;447.9;471.4;487.5;496.9;500;496.9;487.5;471.4;447.9;415.74;372.68;314.27;229.06;0;0;0;0;0;0;0;0;0;0;0;0;0;0;0;0;0;0;0;0;0;0;0;0;0;0;0;0;0;0;0;0;0;0;103.45;403.45;703.45;1003.4;1303.4;1021.6;721.55;421.55;121.55;-178.45;103.45;0;0;0;0;0;0;0;229.06;314.27;372.68;415.74;447.9;471.4;487.5;496.9;500;496.9;487.5;471.4;447.9;415.74;372.68;314.27;229.06;0;0;0;0;0;0;0;0;0;0;0;0;0;0;0;0;0;0;0;0;0;0;0;0;0;0;0;0;0;0;0;0;0;0;113.79;413.79;713.79;1013.8;1311.2;1011.2;711.21;411.21;111.21;-186.21;0;0;0;0;0;0;0;0;229.06;314.27;372.68;415.74;447.9;471.4;487.5;496.9;500;496.9;487.5;471.4;447.9;415.74;372.68;314.27;229.06;0;0;0;0;0;0;0;0;0;0;0;0;0;0;0;0;0;0;0;0;0;0;0;0;0;0;0;0;0;0;0;0;0;0;124.14;424.14;724.14;1024.1;1300.9;1000.9;700.86;400.86;100.86;-175.86;0;0;0;0;0;0;0;0;229.06;314.27;372.68;415.74;447.9;471.4;487.5;496.9;500;496.9;487.5;471.4;447.9;415.74;372.68;314.27;229.06;0;0;0;0;0;0;0;0;0;0;0;0;0;0;0;0;0;0;0;0;0;0;0;0;0;0;0;0;0;0;0;0;0;0;134.48;434.48;734.48;1034.5;1290.5;990.52;690.52;390.52;90.517;-165.52;0;0;0;0;0;0;0;0;229.06;314.27;372.68;415.74;447.9;471.4;487.5;496.9;500;496.9;487.5;471.4;447.9;415.74;372.68;314.27;229.06;0;0;0;0;0;0;0;0;0;0;0;0;0;0;0;0;0;0;0;0;0;0;0;0;0;0;0;0;0;0;0;0;0;0;144.83;444.83;744.83;1044.8;1280.2;980.17;680.17;380.17;80.172;-155.17;0;0;0;0;0;0;0;0;229.06;314.27;372.68;415.74;447.9;471.4;487.5;496.9;500;496.9;487.5;471.4;447.9;415.74;372.68;314.27;229.06;0;0;0;0;0;0;0;0;0;0;0;0;0;0;0;0;0;0;0;0;0;0;0;0;0;0;0;0;0;0;0;0;0;0;155.17;455.17;755.17;1055.2;1269.8;969.83;669.83;369.83;69.828;-144.83;0;0;0;0;0;0;0;0;229.06;314.27;372.68;415.74;447.9;471.4;487.5;496.9;500;496.9;487.5;471.4;447.9;415.74;372.68;314.27;229.06;0;0;0;0;0;0;0;0;0;0;0;0;0;0;0;0;0;0;0;0;0;0;0;0;0;0;0;0;0;0;0;0;0;0;165.52;465.52;765.52;1065.5;1259.5;959.48;659.48;359.48;59.483;-134.48;0;0;0;0;0;0;0;0;229.06;314.27;372.68;415.74;447.9;471.4;487.5;496.9;500;496.9;487.5;471.4;447.9;415.74;372.68;314.27;229.06;0;0;0;0;0;0;0;0;0;0;0;0;0;0;0;0;0;0;0;0;0;0;0;0;0;0;0;0;0;0;0;0;0;0;175.86;475.86;775.86;1075.9;1249.1;949.14;649.14;349.14;49.138;-124.14;0;0;0;0;0;0;0;0;229.06;314.27;372.68;415.74;447.9;471.4;487.5;496.9;500;496.9;487.5;471.4;447.9;415.74;372.68;314.27;229.06;0;0;0;0;0;0;0;0;0;0;0;0;0;0;0;0;0;0;0;0;0;0;0;0;0;0;0;0;0;0;0;0;0;0;186.21;486.21;786.21;1086.2;1238.8;938.79;638.79;338.79;38.793;-113.79;0;0;0;0;0;0;0;0;229.06;314.27;372.68;415.74;447.9;471.4;487.5;496.9;500;496.9;487.5;471.4;447.9;415.74;372.68;314.27;229.06;0;0;0;0;0;0;0;0;0;0;0;0;0;0;0;0;0;0;0;0;0;0;0;0;0;0;0;0;0;0;0;0;0;0;196.55;496.55;796.55;1096.6;1228.4;928.45;628.45;328.45;28.448;-103.45;0;0;0;0;0;0;0;0;229.06;314.27;372.68;415.74;447.9;471.4;487.5;496.9;500;496.9;487.5;471.4;447.9;415.74;372.68;314.27;229.06;0;0;0;0;0;0;0;0;0;0;0;0;0;0;0;0;0;0;0;0;0;0;0;0;0;0;0;0;0;0;0;0;0;0;206.9;506.9;806.9;1106.9;1218.1;918.1;618.1;318.1;18.103;-93.103;0;0;0;0;0;0;0;0;229.06;314.27;372.68;415.74;447.9;471.4;487.5;496.9;500;496.9;487.5;471.4;447.9;415.74;372.68;314.27;229.06;0;0;0;0;0;0;0;0;0;0;0;0;0;0;0;0;0;0;0;0;0;0;0;0;0;0;0;0;0;0;0;0;0;0;217.24;517.24;817.24;1117.2;1207.8;907.76;607.76;307.76;7.7586;-82.759;0;0;0;0;0;0;0;0;229.06;314.27;372.68;415.74;447.9;471.4;487.5;496.9;500;496.9;487.5;471.4;447.9;415.74;372.68;314.27;229.06;0;0;0;0;0;0;0;0;0;0;0;0;0;0;0;0;0;0;0;0;0;0;0;0;0;0;0;0;0;0;0;0;0;0;227.59;527.59;827.59;1127.6;1197.4;897.41;597.41;297.41;-2.5862;-72.414;0;0;0;0;0;0;0;0;229.06;314.27;372.68;415.74;447.9;471.4;487.5;496.9;500;496.9;487.5;471.4;447.9;415.74;372.68;314.27;229.06;0;0;0;0;0;0;0;0;0;0;0;0;0;0;0;0;0;0;0;0;0;0;0;0;0;0;0;0;0;0;0;0;0;0;237.93;537.93;837.93;1137.9;1187.1;887.07;587.07;287.07;-12.931;-62.069;0;0;0;0;0;0;0;0;229.06;314.27;372.68;415.74;447.9;471.4;487.5;496.9;500;496.9;487.5;471.4;447.9;415.74;372.68;314.27;229.06;0;0;0;0;0;0;0;0;0;0;0;0;0;0;0;0;0;0;0;0;0;0;0;0;0;0;0;0;0;0;0;0;0;0;248.28;548.28;848.28;1148.3;1176.7;876.72;576.72;276.72;-23.276;-51.724;0;0;0;0;0;0;0;0;229.06;314.27;372.68;415.74;447.9;471.4;487.5;496.9;500;496.9;487.5;471.4;447.9;415.74;372.68;314.27;229.06;0;0;0;0;0;0;0;0;0;0;0;0;0;0;0;0;0;0;0;0;0;0;0;0;0;0;0;0;0;0;0;0;0;0;258.62;558.62;858.62;1158.6;1166.4;866.38;566.38;266.38;-33.621;-41.379;0;0;0;0;0;0;0;0;229.06;314.27;372.68;415.74;447.9;471.4;487.5;496.9;500;496.9;487.5;471.4;447.9;415.74;372.68;314.27;229.06;0;0;0;0;0;0;0;0;0;0;0;0;0;0;0;0;0;0;0;0;0;0;0;0;0;0;0;0;0;0;0;0;0;0;268.97;568.97;868.97;1169;1156;856.03;556.03;256.03;-43.966;-31.034;0;0;0;0;0;0;0;0;229.06;314.27;372.68;415.74;447.9;471.4;487.5;496.9;500;496.9;487.5;471.4;447.9;415.74;372.68;314.27;229.06;0;0;0;0;0;0;0;0;0;0;0;0;0;0;0;0;0;0;0;0;0;0;0;0;0;0;0;0;0;0;0;0;0;0;279.31;579.31;879.31;1179.3;1145.7;845.69;545.69;245.69;-54.31;-20.69;0;0;0;0;0;0;0;0;229.06;314.27;372.68;415.74;447.9;471.4;487.5;496.9;500;496.9;487.5;471.4;447.9;415.74;372.68;314.27;229.06;0;0;0;0;0;0;0;0;0;0;0;0;0;0;0;0;0;0;0;0;0;0;0;0;0;0;0;0;0;0;0;0;0;0;289.66;589.66;889.66;1189.7;1135.3;835.34;535.34;235.34;-64.655;-10.345;0;0;0;0;0;0;0;0;229.06;314.27;372.68;415.74;447.9;471.4;487.5;496.9;500;496.9;487.5;471.4;447.9;415.74;372.68;314.27;229.06;0;0;0;0;0;0;0;0;0;0;0;0;0;0;0;0;0;0;0;0;0;0;0;0;0;0;0;0;0;0;0;0;0;0;300;600;900;1200;1125;825;525;225;-75;-2.3283e-10;0;0;0;0;0;0;0;0;229.06;314.27;372.68;415.74;447.9;471.4;487.5;496.9;500;496.9;487.5;471.4;447.9;415.74;372.68;314.27;229.06;0;0;0;0;0;0;0;0;0;0;0;0;0;0;0;0;0;0;0;0;0;0;0;0;0;0;0;0;0;0;0;0;0;10.345;310.34;610.34;910.34;1210.3;1114.7;814.66;514.66;214.66;-85.345;10.345;0;0;0;0;0;0;0;229.06;314.27;372.68;415.74;447.9;471.4;487.5;496.9;500;496.9;487.5;471.4;447.9;415.74;372.68;314.27;229.06;0;0;0;0;0;0;0;0;0;0;0;0;0;0;0;0;0;0;0;0;0;0;0;0;0;0;0;0;0;0;0;0;0;0;20.69;320.69;620.69;920.69;1220.7;1104.3;804.31;504.31;204.31;-95.69;20.69;0;0;0;0;0;0;0;229.06;314.27;372.68;415.74;447.9;471.4;487.5;496.9;500;496.9;487.5;471.4;447.9;415.74;372.68;314.27;229.06;0;0;0;0;0;0;0;0;0;0;0;0;0;0;0;0;0;0;0;0;0;0;0;0;0;0;0;0;0;0;0;0;0;0;31.034;331.03;631.03;931.03;1231;1094;793.97;493.97;193.97;-106.03;31.034;0;0;0;0;0;0;0;229.06;314.27;372.68;415.74;447.9;471.4;487.5;496.9;500;496.9;487.5;471.4;447.9;415.74;372.68;314.27;229.06;0;0;0;0;0;0;0;0;0;0;0;0;0;0;0;0;0;0;0;0;0;0;0;0;0;0;0;0;0;0;0;0;0;0;41.379;341.38;641.38;941.38;1241.4;1083.6;783.62;483.62;183.62;-116.38;41.379;0;0;0;0;0;0;0;229.06;314.27;372.68;415.74;447.9;471.4;487.5;496.9;500;496.9;487.5;471.4;447.9;415.74;372.68;314.27;229.06;0;0;0;0;0;0;0;0;0;0;0;0;0;0;0;0;0;0;0;0;0;0;0;0;0;0;0;0;0;0;0;0;0;0;51.724;351.72;651.72;951.72;1251.7;1073.3;773.28;473.28;173.28;-126.72;51.724;0;0;0;0;0;0;0;229.06;314.27;372.68;415.74;447.9;471.4;487.5;496.9;500;496.9;487.5;471.4;447.9;415.74;372.68;314.27;229.06;0;0;0;0;0;0;0;0;0;0;0;0;0;0;0;0;0;0;0;0;0;0;0;0;0;0;0;0;0;0;0;0;0;0;62.069;362.07;662.07;962.07;1262.1;1062.9;762.93;462.93;162.93;-137.07;62.069;0;0;0;0;0;0;0;229.06;314.27;372.68;415.74;447.9;471.4;487.5;496.9;500;496.9;487.5;471.4;447.9;415.74;372.68;314.27;229.06;0;0;0;0;0;0;0;0;0;0;0;0;0;0;0;0;0;0;0;0;0;0;0;0;0;0;0;0;0;0;0;0;0;0;72.414;372.41;672.41;972.41;1272.4;1052.6;752.59;452.59;152.59;-147.41;72.414;0;0;0;0;0;0;0;229.06;314.27;372.68;415.74;447.9;471.4;487.5;496.9;500;496.9;487.5;471.4;447.9;415.74;372.68;314.27;229.06;0;0;0;0;0;0;0;0;0;0;0;0;0;0;0;0;0;0;0;0;0;0;0;0;0;0;0;0;0;0;0;0;0;0;82.759;382.76;682.76;982.76;1282.8;1042.2;742.24;442.24;142.24;-157.76;82.759;0;0;0;0;0;0;0;229.06;314.27;372.68;415.74;447.9;471.4;487.5;496.9;500;496.9;487.5;471.4;447.9;415.74;372.68;314.27;229.06;0;0;0;0;0;0;0;0;0;0;0;0;0;0;0;0;0;0;0;0;0;0;0;0;0;0;0;0;0;0;0;0;0;0;93.103;393.1;693.1;993.1;1293.1;1031.9;731.9;431.9;131.9;-168.1;93.103;0;0;0;0;0;0;0;229.06;314.27;372.68;415.74;447.9;471.4;487.5;496.9;500;496.9;487.5;471.4;447.9;415.74;372.68;314.27;229.06;0;0;0;0;0;0;0;0;0;0;0;0;0;0;0;0;0;0;0;0;0;0;0;0;0;0;0;0;0;0;0;0;0;0;103.45;403.45;703.45;1003.4;1303.4;1021.6;721.55;421.55;121.55;-178.45;103.45;0;0;0;0;0;0;0;229.06;314.27;372.68;415.74;447.9;471.4;487.5;496.9;500;496.9;487.5;471.4;447.9;415.74;372.68;314.27;229.06;0;0;0;0;0;0;0;0;0;0;0;0;0;0;0;0;0;0;0;0;0;0;0;0;0;0;0;0;0;0;0;0;0;0;113.79;413.79;713.79;1013.8;1311.2;1011.2;711.21;411.21;111.21;-186.21;0;0;0;0;0;0;0;0;229.06;314.27;372.68;415.74;447.9;471.4;487.5;496.9;500;496.9;487.5;471.4;447.9;415.74;372.68;314.27;229.06;0;0;0;0;0;0;0;0;0;0;0;0;0;0;0;0;0;0;0;0;0;0;0;0;0;0;0;0;0;0;0;0;0;0;124.14;424.14;724.14;1024.1;1300.9;1000.9;700.86;400.86;100.86;-175.86;0;0;0;0;0;0;0;0;229.06;314.27;372.68;415.74;447.9;471.4;487.5;496.9;500;496.9;487.5;471.4;447.9;415.74;372.68;314.27;229.06;0;0;0;0;0;0;0;0;0;0;0;0;0;0;0;0;0;0;0;0;0;0;0;0;0;0;0;0;0;0;0;0;0;0;134.48;434.48;734.48;1034.5;1290.5;990.52;690.52;390.52;90.517;-165.52;0;0;0;0;0;0;0;0;229.06;314.27;372.68;415.74;447.9;471.4;487.5;496.9;500;496.9;487.5;471.4;447.9;415.74;372.68;314.27;229.06;0;0;0;0;0;0;0;0;0;0;0;0;0;0;0;0;0;0;0;0;0;0;0;0;0;0;0;0;0;0;0;0;0;0;144.83;444.83;744.83;1044.8;1280.2;980.17;680.17;380.17;80.172;-155.17;0;0;0;0;0;0;0;0;229.06;314.27;372.68;415.74;447.9;471.4;487.5;496.9;500;496.9;487.5;471.4;447.9;415.74;372.68;314.27;229.06;0;0;0;0;0;0;0;0;0;0;0;0;0;0;0;0;0;0;0;0;0;0;0;0;0;0;0;0;0;0;0;0;0;0;155.17;455.17;755.17;1055.2;1269.8;969.83;669.83;369.83;69.828;-144.83;0;0;0;0;0;0;0;0;229.06;314.27;372.68;415.74;447.9;471.4;487.5;496.9;500;496.9;487.5;471.4;447.9;415.74;372.68;314.27;229.06;0;0;0;0;0;0;0;0;0;0;0;0;0;0;0;0;0;0;0;0;0;0;0;0;0;0;0;0;0;0;0;0;0;0;165.52;465.52;765.52;1065.5;1259.5;959.48;659.48;359.48;59.483;-134.48;0;0;0;0;0;0;0;0;229.06;314.27;372.68;415.74;447.9;471.4;487.5;496.9;500;496.9;487.5;471.4;447.9;415.74;372.68;314.27;229.06;0

No se observa ninguna anomalia en la señal