150
0;0;0;0;0;0;0;0;0;0;0;0;0;0;0;0;0;0;0;0;0;0;0;0;0;0;0;0;0;0;0;0;0;0;0;0;0;0;0;0;0;0;0;0;0;0;0;87.839;234.51;381.17;527.84;674.51;821.17;957.16;810.49;663.83;517.16;370.49;223.83;77.161;-69.505;-58.828;0;0;0;0;0;0;0;0;0;0;0;188.85;261.89;314.27;355.25;388.45;415.74;438.23;456.62;471.4;482.9;491.35;496.9;499.66;499.66;496.9;491.35;482.9;471.4;456.62;438.23;415.74;388.45;355.25;314.27;261.89;188.85;0;0;0;0;0;0;0;0;0;0;0;0;0;0;0;0;0;0;0;0;0;0;0;0;0;0;0;0;0;0;0;0;0;0;0;0;0;0;0;0;0;0;0;0;0;0;0;102.34;249.01;395.68;542.34;689.01;835.68;942.66;795.99;649.32;502.66;355.99;209.32;62.656;-84.011;-44.322;0;0;0;0;0;0;0;0;0;0;0;188.85;261.89;314.27;355.25;388.45;415.74;438.23;456.62;471.4;482.9;491.35;496.9;499.66;499.66;496.9;491.35;482.9;471.4;456.62;438.23;415.74;388.45;355.25;314.27;261.89;188.85;0;0;0;0;0;0;0;0;0;0;0;0;0;0;0;0;0;0;0;0;0;0;0;0;0;0;0;0;0;0;0;0;0;0;0;0;0;0;0;0;0;0;0;0;0;0;0;116.85;263.52;410.18;556.85;703.52;850.18;928.15;781.48;634.82;488.15;341.48;194.82;48.15;-98.516;-29.817;0;0;0;0;0;0;0;0;0;0;0;188.85;261.89;314.27;355.25;388.45;415.74;438.23;456.62;471.4;482.9;491.35;496.9;499.66;499.66;496.9;491.35;482.9;471.4;456.62;438.23;415.74;388.45;355.25;314.27;261.89;188.85;0;0;0;0;0;0;0;0;0;0;0;0;0;0;0;0;0;0;0;0;0;0;0;0;0;0;0;0;0;0;0;0;0;0;0;0;0;0;0;0;0;0;0;0;0;0;0;131.36;278.02;424.69;571.36;718.02;864.69;913.64;766.98;620.31;473.64;326.98;180.31;33.645;-113.02;-15.311;0;0;0;0;0;0;0;0;0;0;0;188.85;261.89;314.27;355.25;388.45;415.74;438.23;456.62;471.4;482.9;491.35;496.9;499.66;499.66;496.9;491.35;482.9;471.4;456.62;438.23;415.74;388.45;355.25;314.27;261.89;188.85;0;0;0;0;0;0;0;0;0;0;0;0;0;0;0;0;0;0;0;0;0;0;0;0;0;0;0;0;0;0;0;0;0;0;0;0;0;0;0;0;0;0;0;0;0;0;0;145.86;292.53;439.19;585.86;732.53;879.19;899.14;752.47;605.81;459.14;312.47;165.81;19.139;-127.53;-0.80586;0;0;0;0;0;0;0;0;0;0;0;188.85;261.89;314.27;355.25;388.45;415.74;438.23;456.62;471.4;482.9;491.35;496.9;499.66;499.66;496.9;491.35;482.9;471.4;456.62;438.23;415.74;388.45;355.25;314.27;261.89;188.85;0;0;0;0;0;0;0;0;0;0;0;0;0;0;0;0;0;0;0;0;0;0;0;0;0;0;0;0;0;0;0;0;0;0;0;0;0;0;0;0;0;0;0;0;0;0;13.7;160.37;307.03;453.7;600.37;747.03;893.7;884.63;737.97;591.3;444.63;297.97;151.3;4.6337;-132.97;0;0;0;0;0;0;0;0;0;0;0;0;188.85;261.89;314.27;355.25;388.45;415.74;438.23;456.62;471.4;482.9;491.35;496.9;499.66;499.66;496.9;491.35;482.9;471.4;456.62;438.23;415.74;388.45;355.25;314.27;261.89;188.85;0;0;0;0;0;0;0;0;0;0;0;0;0;0;0;0;0;0;0;0;0;0;0;0;0;0;0;0;0;0;0;0;0;0;0;0;0;0;0;0;0;0;0;0;0;0;28.205;174.87;321.54;468.21;614.87;761.54;908.21;870.13;723.46;576.79;430.13;283.46;136.79;-9.8718;-118.46;0;0;0;0;0;0;0;0;0;0;0;0;188.85;261.89;314.27;355.25;388.45;415.74;438.23;456.62;471.4;482.9;491.35;496.9;499.66;499.66;496.9;491.35;482.9;471.4;456.62;438.23;415.74;388.45;355.25;314.27;261.89;188.85;0;0;0;0;0;0;0;0;0;0;0;0;0;0;0;0;0;0;0;0;0;0;0;0;0;0;0;0;0;0;0;0;0;0;0;0;0;0;0;0;0;0;0;0;0;0;42.711;189.38;336.04;482.71;629.38;776.04;922.71;855.62;708.96;562.29;415.62;268.96;122.29;-24.377;-103.96;0;0;0;0;0;0;0;0;0;0;0;0;188.85;261.89;314.27;355.25;388.45;415.74;438.23;456.62;471.4;482.9;491.35;496.9;499.66;499.66;496.9;491.35;482.9;471.4;456.62;438.23;415.74;388.45;355.25;314.27;261.89;188.85;0;0;0;0;0;0;0;0;0;0;0;0;0;0;0;0;0;0;0;0;0;0;0;0;0;0;0;0;0;0;0;0;0;0;0;0;0;0;0;0;0;0;0;0;0;0;57.216;203.88;350.55;497.22;643.88;790.55;937.22;841.12;694.45;547.78;401.12;254.45;107.78;-38.883;-89.451;0;0;0;0;0;0;0;0;0;0;0;0;188.85;261.89;314.27;355.25;388.45;415.74;438.23;456.62;471.4;482.9;491.35;496.9;499.66;499.66;496.9;491.35;482.9;471.4;456.62;438.23;415.74;388.45;355.25;314.27;261.89;188.85;0;0;0;0;0;0;0;0;0;0;0;0;0;0;0;0;0;0;0;0;0;0;0;0;0;0;0;0;0;0;0;0;0;0;0;0;0;0;0;0;0;0;0;0;0;0;71.722;218.39;365.05;511.72;658.39;805.05;951.72;826.61;679.95;533.28;386.61;239.95;93.278;-53.388;-74.945;0;0;0;0;0;0;0;0;0;0;0;0;188.85;261.89;314.27;355.25;388.45;415.74;438.23;456.62;471.4;482.9;491.35;496.9;499.66;499.66;496.9;491.35;482.9;471.4;456.62;438.23;415.74;388.45;355.25;314.27;261.89;188.85;0;0;0;0;0;0;0;0;0;0;0;0;0;0;0;0;0;0;0;0;0;0;0;0;0;0;0;0;0;0;0;0;0;0;0;0;0;0;0;0;0;0;0;0;0;0;86.227;232.89;379.56;526.23;672.89;819.56;958.77;812.11;665.44;518.77;372.11;225.44;78.773;-67.894;-60.44;0;0;0;0;0;0;0;0;0;0;0;188.85;261.89;314.27;355.25;388.45;415.74;438.23;456.62;471.4;482.9;491.35;496.9;499.66;499.66;496.9;491.35;482.9;471.4;456.62;438.23;415.74;388.45;355.25;314.27;261.89;188.85;0;0;0;0;0;0;0;0;0;0;0;0;0;0;0;0;0;0;0;0;0;0;0;0;0;0;0;0;0;0;0;0;0;0;0;0;0;0;0;0;0;0;0;0;0;0;0;100.73;247.4;394.07;540.73;687.4;834.07;944.27;797.6;650.93;504.27;357.6;210.93;64.267;-82.399;-45.934;0;0;0;0;0;0;0;0;0;0;0;188.85;261.89;314.27;355.25;388.45;415.74;438.23;456.62;471.4;482.9;491.35;496.9;499.66;499.66;496.9;491.35;482.9;471.4;456.62;438.23;415.74;388.45;355.25;314.27;261.89;188.85;0;0;0;0;0;0;0;0;0;0;0;0;0;0;0;0;0;0;0;0;0;0;0;0;0;0;0;0;0;0;0;0;0;0;0;0;0;0;0;0;0;0;0;0;0;0;0;115.24;261.9;408.57;555.24;701.9;848.57;929.76;783.1;636.43;489.76;343.1;196.43;49.762;-96.905;-31.429;0;0;0;0;0;0;0;0;0;0;0;188.85;261.89;314.27;355.25;388.45;415.74;438.23;456.62;471.4;482.9;491.35;496.9;499.66;499.66;496.9;491.35;482.9;471.4;456.62;438.23;415.74;388.45;355.25;314.27;261.89;188.85;0;0;0;0;0;0;0;0;0;0;0;0;0;0;0;0;0;0;0;0;0;0;0;0;0;0;0;0;0;0;0;0;0;0;0;0;0;0;0;0;0;0;0;0;0;0;0;129.74;276.41;423.08;569.74;716.41;863.08;915.26;768.59;621.92;475.26;328.59;181.92;35.256;-111.41;-16.923;0;0;0;0;0;0;0;0;0;0;0;188.85;261.89;314.27;355.25;388.45;415.74;438.23;456.62;471.4;482.9;491.35;496.9;499.66;499.66;496.9;491.35;482.9;471.4;456.62;438.23;415.74;388.45;355.25;314.27;261.89;188.85;0;0;0;0;0;0;0;0;0;0;0;0;0;0;0;0;0;0;0;0;0;0;0;0;0;0;0;0;0;0;0;0;0;0;0;0;0;0;0;0;0;0;0;0;0;0;0;144.25;290.92;437.58;584.25;730.92;877.58;900.75;754.08;607.42;460.75;314.08;167.42;20.751;-125.92;-2.4176;0;0;0;0;0;0;0;0;0;0;0;188.85;261.89;314.27;355.25;388.45;415.74;438.23;456.62;471.4;482.9;491.35;496.9;499.66;499.66;496.9;491.35;482.9;471.4;456.62;438.23;415.74;388.45;355.25;314.27;261.89;188.85;0;0;0;0;0;0;0;0;0;0;0;0;0;0;0;0;0;0;0;0;0;0;0;0;0;0;0;0;0;0;0;0;0;0;0;0;0;0;0;0;0;0;0;0;0;0;12.088;158.75;305.42;452.09;598.75;745.42;892.09;886.25;739.58;592.91;446.25;299.58;152.91;6.2454;-134.58;0;0;0;0;0;0;0;0;0;0;0;0;188.85;261.89;314.27;355.25;388.45;415.74;438.23;456.62;471.4;482.9;491.35;496.9;499.66;499.66;496.9;491.35;482.9;471.4;456.62;438.23;415.74;388.45;355.25;314.27;261.89;188.85;0;0;0;0;0;0;0;0;0;0;0;0;0;0;0;0;0;0;0;0;0;0;0;0;0;0;0;0;0;0;0;0;0;0;0;0;0;0;0;0;0;0;0;0;0;0;26.593;173.26;319.93;466.59;613.26;759.93;906.59;871.74;725.07;578.41;431.74;285.07;138.41;-8.2601;-120.07;0;0;0;0;0;0;0;0;0;0;0;0;188.85;261.89;314.27;355.25;388.45;415.74;438.23;456.62;471.4;482.9;491.35;496.9;499.66;499.66;496.9;491.35;482.9;471.4;456.62;438.23;415.74;388.45;355.25;314.27;261.89;188.85;0;0;0;0;0;0;0;0;0;0;0;0;0;0;0;0;0;0;0;0;0;0;0;0;0;0;0;0;0;0;0;0;0;0;0;0;0;0;0;0;0;0;0;0;0;0;41.099;187.77;334.43;481.1;627.77;774.43;921.1;857.23;710.57;563.9;417.23;270.57;123.9;-22.766;-105.57;0;0;0;0;0;0;0;0;0;0;0;0;188.85;261.89;314.27;355.25;388.45;415.74;438.23;456.62;471.4;482.9;491.35;496.9;499.66;499.66;496.9;491.35;482.9;471.4;456.62;438.23;415.74;388.45;355.25;314.27;261.89;188.85;0;0;0;0;0;0;0;0;0;0;0;0;0;0;0;0;0;0;0;0;0;0;0;0;0;0;0;0;0;0;0;0;0;0;0;0;0;0;0;0;0;0;0;0;0;0;55.604;202.27;348.94;495.6;642.27;788.94;935.6;842.73;696.06;549.4;402.73;256.06;109.4;-37.271;-91.062;0;0;0;0;0;0;0;0;0;0;0;0;188.85;261.89;314.27;355.25;388.45;415.74;438.23;456.62;471.4;482.9;491.35;496.9;499.66;499.66;496.9;491.35;482.9;471.4;456.62;438.23;415.74;388.45;355.25;314.27;261.89;188.85;0;0;0;0;0;0;0;0;0;0;0;0;0;0;0;0;0;0;0;0;0;0;0;0;0;0;0;0;0;0;0;0;0;0;0;0;0;0;0;0;0;0;0;0;0;0;70.11;216.78;363.44;510.11;656.78;803.44;950.11;828.22;681.56;534.89;388.22;241.56;94.89;-51.777;-76.557;0;0;0;0;0;0;0;0;0;0;0;0;188.85;261.89;314.27;355.25;388.45;415.74;438.23;456.62;471.4;482.9;491.35;496.9;499.66;499.66;496.9;491.35;482.9;471.4;456.62;438.23;415.74;388.45;355.25;314.27;261.89;188.85;0;0;0;0;0;0;0;0;0;0;0;0;0;0;0;0;0;0;0;0;0;0;0;0;0;0;0;0;0;0;0;0;0;0;0;0;0;0;0;0;0;0;0;0;0;0;84.615;231.28;377.95;524.62;671.28;817.95;960.38;813.72;667.05;520.38;373.72;227.05;80.385;-66.282;-62.051;0;0;0;0;0;0;0;0;0;0;0;188.85;261.89;314.27;355.25;388.45;415.74;438.23;456.62;471.4;482.9;491.35;496.9;499.66;499.66;496.9;491.35;482.9;471.4;456.62;438.23;415.74;388.45;355.25;314.27;261.89;188.85;0;0;0;0;0;0;0;0;0;0;0;0;0;0;0;0;0;0;0;0;0;0;0;0;0;0;0;0;0;0;0;0;0;0;0;0;0;0;0;0;0;0;0;0;0;0;0;99.121;245.79;392.45;539.12;685.79;832.45;945.88;799.21;652.55;505.88;359.21;212.55;65.879;-80.788;-47.546;0;0;0;0;0;0;0;0;0;0;0;188.85;261.89;314.27;355.25;388.45;415.74;438.23;456.62;471.4;482.9;491.35;496.9;499.66;499.66;496.9;491.35;482.9;471.4;456.62;438.23;415.74;388.45;355.25;314.27;261.89;188.85;0;0;0;0;0;0;0;0;0;0;0;0;0;0;0;0;0;0;0;0;0;0;0;0;0;0;0;0;0;0;0;0;0;0;0;0;0;0;0;0;0;0;0;0;0;0;0;113.63;260.29;406.96;553.63;700.29;846.96;931.37;784.71;638.04;491.37;344.71;198.04;51.374;-95.293;-33.04;0;0;0;0;0;0;0;0;0;0;0;188.85;261.89;314.27;355.25;388.45;415.74;438.23;456.62;471.4;482.9;491.35;496.9;499.66;499.66;496.9;491.35;482.9;471.4;456.62;438.23;415.74;388.45;355.25;314.27;261.89;188.85;0;0;0;0;0;0;0;0;0;0;0;0;0;0;0;0;0;0;0;0;0;0;0;0;0;0;0;0;0;0;0;0;0;0;0;0;0;0;0;0;0;0;0;0;0;0;0;128.13;274.8;421.47;568.13;714.8;861.47;916.87;770.2;623.53;476.87;330.2;183.53;36.868;-109.8;-18.535;0;0;0;0;0;0;0;0;0;0;0;188.85;261.89;314.27;355.25;388.45;415.74;438.23;456.62;471.4;482.9;491.35;496.9;499.66;499.66;496.9;491.35;482.9;471.4;456.62;438.23;415.74;388.45;355.25;314.27;261.89;188.85;0;0;0;0;0;0;0;0;0;0;0;0;0;0;0;0;0;0;0;0;0;0;0;0;0;0;0;0;0;0;0;0;0;0;0;0;0;0;0;0;0;0;0;0;0;0;0;142.64;289.3;435.97;582.64;729.3;875.97;902.36;755.7;609.03;462.36;315.7;169.03;22.363;-124.3;-4.0293;0;0;0;0;0;0;0;0;0;0;0;188.85;261.89;314.27;355.25;388.45;415.74;438.23;456.62;471.4;482.9;491.35;496.9;499.66;499.66;496.9;491.35;482.9;471.4;456.62;438.23;415.74;388.45;355.25;314.27;261.89;188.85;0;0;0;0;0;0;0;0;0;0;0;0;0;0;0;0;0;0;0;0;0;0;0;0;0;0;0;0;0;0;0;0;0;0;0;0;0;0;0;0;0;0;0;0;0;0;10.476;157.14;303.81;450.48;597.14;743.81;890.48;887.86;741.19;594.52;447.86;301.19;154.52;7.8571;-136.19;0;0;0;0;0;0;0;0;0;0;0;0;188.85;261.89;314.27;355.25;388.45;415.74;438.23;456.62;471.4;482.9;491.35;496.9;499.66;499.66;496.9;491.35;482.9;471.4;456.62;438.23;415.74;388.45;355.25;314.27;261.89;188.85;0;0;0;0;0;0;0;0;0;0;0;0;0;0;0;0;0;0;0;0;0;0;0;0;0;0;0;0;0;0;0;0;0;0;0;0;0;0;0;0;0;0;0;0;0;0;24.982;171.65;318.32;464.98;611.65;758.32;904.98;873.35;726.68;580.02;433.35;286.68;140.02;-6.6484;-121.68;0;0;0;0;0;0;0;0;0;0;0;0;188.85;261.89;314.27;355.25;388.45;415.74;438.23;456.62;471.4;482.9;491.35;496.9;499.66;499.66;496.9;491.35;482.9;471.4;456.62;438.23;415.74;388.45;355.25;314.27;261.89;188.85;0;0;0;0;0;0;0;0;0;0;0;0;0;0;0;0;0;0;0;0;0;0;0;0;0;0;0;0;0;0;0;0;0;0;0;0;0;0;0;0;0;0;0;0;0;0;39.487;186.15;332.82;479.49;626.15;772.82;919.49;858.85;712.18;565.51;418.85;272.18;125.51;-21.154;-107.18;0;0;0;0;0;0;0;0;0;0;0;0;188.85;261.89;314.27;355.25;388.45;415.74;438.23;456.62;471.4;482.9;491.35;496.9;499.66;499.66;496.9;491.35;482.9;471.4;456.62;438.23;415.74;388.45;355.25;314.27;261.89;188.85;0;0;0;0;0;0;0;0;0;0;0;0;0;0;0;0;0;0;0;0;0;0;0;0;0;0;0;0;0;0;0;0;0;0;0;0;0;0;0;0;0;0;0;0;0;0;53.993;200.66;347.33;493.99;640.66;787.33;933.99;844.34;697.67;551.01;404.34;257.67;111.01;-35.659;-92.674;0;0;0;0;0;0;0;0;0;0;0;0;188.85;261.89;314.27;355.25;388.45;415.74;438.23;456.62;471.4;482.9;491.35;496.9;499.66;499.66;496.9;491.35;482.9;471.4;456.62;438.23;415.74;388.45;355.25;314.27;261.89;188.85;0;0;0;0;0;0;0;0;0;0;0;0;0;0;0;0;0;0;0;0;0;0;0;0;0;0;0;0;0;0;0;0;0;0;0;0;0;0;0;0;0;0;0;0;0;0;68.498;215.16;361.83;508.5;655.16;801.83;948.5;829.84;683.17;536.5;389.84;243.17;96.502;-50.165;-78.168;0;0;0;0;0;0;0;0;0;0;0;0;188.85;261.89;314.27;355.25;388.45;415.74;438.23;456.62;471.4;482.9;491.35;496.9;499.66;499.66;496.9;491.35;482.9;471.4;456.62;438.23;415.74;388.45;355.25;314.27;261.89;188.85;0;0;0;0;0;0;0;0;0;0;0;0;0;0;0;0;0;0;0;0;0;0;0;0;0;0;0;0;0;0;0;0;0;0;0;0;0;0;0;0;0;0;0;0;0;0;83.004;229.67;376.34;523;669.67;816.34;962;815.33;668.66;522;375.33;228.66;81.996;-64.67;-63.663;0;0;0;0;0;0;0;0;0;0;0;188.85;261.89;314.27;355.25;388.45;415.74;438.23;456.62;471.4;482.9;491.35;496.9;499.66;499.66;496.9;491.35;482.9;471.4;456.62;438.23;415.74;388.45;355.25;314.27;261.89;188.85;0;0;0;0;0;0;0;0;0;0;0;0;0;0;0;0;0;0;0;0;0;0;0;0;0;0;0;0;0;0;0;0;0;0;0;0;0;0;0;0;0;0;0;0;0;0;0;97.509;244.18;390.84;537.51;684.18;830.84;947.49;800.82;654.16;507.49;360.82;214.16;67.491;-79.176;-49.158;0;0;0;0;0;0;0;0;0;0;0;188.85;261.89;314.27;355.25;388.45;415.74;438.23;456.62;471.4;482.9;491.35;496.9;499.66;499.66;496.9;491.35;482.9;471.4;456.62;438.23;415.74;388.45;355.25;314.27;261.89;188.85;0;0;0;0;0;0;0;0;0;0;0;0;0;0;0;0;0;0;0;0;0;0;0;0;0;0;0;0;0;0;0;0;0;0;0;0;0;0;0;0;0;0;0;0;0;0;0;112.01;258.68;405.35;552.01;698.68;845.35;932.99;786.32;639.65;492.99;346.32;199.65;52.985;-93.681;-34.652;0;0;0;0;0;0;0;0;0;0;0;188.85;261.89;314.27;355.25;388.45;415.74;438.23;456.62;471.4;482.9;491.35;496.9;499.66;499.66;496.9;491.35;482.9;471.4;456.62;438.23;415.74;388.45;355.25;314.27;261.89;188.85;0;0;0;0;0;0;0;0;0;0;0;0;0;0;0;0;0;0;0;0;0;0;0;0;0;0;0;0;0;0;0;0;0;0;0;0;0;0;0;0;0;0;0;0;0;0;0;126.52;273.19;419.85;566.52;713.19;859.85;918.48;771.81;625.15;478.48;331.81;185.15;38.48;-108.19;-20.147;0;0;0;0;0;0;0;0;0;0;0;188.85;261.89;314.27;355.25;388.45;415.74;438.23;456.62;471.4;482.9;491.35;496.9;499.66;499.66;496.9;491.35;482.9;471.4;456.62;438.23;415.74;388.45;355.25;314.27;261.89;188.85;0;0;0;0;0;0;0;0;0;0;0;0;0;0;0;0;0;0;0;0;0;0;0;0;0;0;0;0;0;0;0;0;0;0;0;0;0;0;0;0;0;0;0;0;0;0;0;141.03;287.69;434.36;581.03;727.69;874.36;903.97;757.31;610.64;463.97;317.31;170.64;23.974;-122.69;-5.641;0;0;0;0;0;0;0;0;0;0;0;188.85;261.89;314.27;355.25;388.45;415.74;438.23;456.62;471.4;482.9;491.35;496.9;499.66;499.66;496.9;491.35;482.9;471.4;456.62;438.23;415.74;388.45;355.25;314.27;261.89;188.85;0;0;0;0;0;0;0;0;0;0;0;0;0;0;0;0;0;0;0;0;0;0;0;0;0;0;0;0;0;0;0;0;0;0;0;0;0;0;0;0;0;0;0;0;0;0;8.8645;155.53;302.2;448.86;595.53;742.2;888.86;889.47;742.8;596.14;449.47;302.8;156.14;9.4689;-137.2;8.8645;0;0;0;0;0;0;0;0;0;0;0;188.85;261.89;314.27;355.25;388.45;415.74;438.23;456.62;471.4;482.9;491.35;496.9;499.66;499.66;496.9;491.35;482.9;471.4;456.62;438.23;415.74;388.45;355.25;314.27;261.89;188.85;0;0;0;0;0;0;0;0;0;0;0;0;0;0;0;0;0;0;0;0;0;0;0;0;0;0;0;0;0;0;0;0;0;0;0;0;0;0;0;0;0;0;0;0;0;0;23.37;170.04;316.7;463.37;610.04;756.7;903.37;874.96;728.3;581.63;434.96;288.3;141.63;-5.0366;-123.3;0;0;0;0;0;0;0;0;0;0;0;0;188.85;261.89;314.27;355.25;388.45;415.74;438.23;456.62;471.4;482.9;491.35;496.9;499.66;499.66;496.9;491.35;482.9;471.4;456.62;438.23;415.74;388.45;355.25;314.27;261.89;188.85;0;0;0;0;0;0;0;0;0;0;0;0;0;0;0;0;0;0;0;0;0;0;0;0;0;0;0;0;0;0;0;0;0;0;0;0;0;0;0;0;0;0;0;0;0;0;37.875;184.54;331.21;477.88;624.54;771.21;917.88;860.46;713.79;567.12;420.46;273.79;127.12;-19.542;-108.79;0;0;0;0;0;0;0;0;0;0;0;0;188.85;261.89;314.27;355.25;388.45;415.74;438.23;456.62;471.4;482.9;491.35;496.9;499.66;499.66;496.9;491.35;482.9;471.4;456.62;438.23;415.74;388.45;355.25;314.27;261.89;188.85;0;0;0;0;0;0;0;0;0;0;0;0;0;0;0;0;0;0;0;0;0;0;0;0;0;0;0;0;0;0;0;0;0;0;0;0;0;0;0;0;0;0;0;0;0;0;52.381;199.05;345.71;492.38;639.05;785.71;932.38;845.95;699.29;552.62;405.95;259.29;112.62;-34.048;-94.286;0;0;0;0;0;0;0;0;0;0;0;0;188.85;261.89;314.27;355.25;388.45;415.74;438.23;456.62;471.4;482.9;491.35;496.9;499.66;499.66;496.9;491.35;482.9;471.4;456.62;438.23;415.74;388.45;355.25;314.27;261.89;188.85;0;0;0;0;0;0;0;0;0;0;0;0;0;0;0;0;0;0;0;0;0;0;0;0;0;0;0;0;0;0;0;0;0;0;0;0;0;0;0;0;0;0;0;0;0;0;66.886;213.55;360.22;506.89;653.55;800.22;946.89;831.45;684.78;538.11;391.45;244.78;98.114;-48.553;-79.78;0;0;0;0;0;0;0;0;0;0;0;0;188.85;261.89;314.27;355.25;388.45;415.74;438.23;456.62;471.4;482.9;491.35;496.9;499.66;499.66;496.9;491.35;482.9;471.4;456.62;438.23;415.74;388.45;355.25;314.27;261.89;188.85;0;0;0;0;0;0;0;0;0;0;0;0;0;0;0;0;0;0;0;0;0;0;0;0;0;0;0;0;0;0;0;0;0;0;0;0;0;0;0;0;0;0;0;0;0;0;81.392;228.06;374.73;521.39;668.06;814.73;961.39;816.94;670.27;523.61;376.94;230.27;83.608;-63.059;-65.275;0;0;0;0;0;0;0;0;0;0;0;188.85;261.89;314.27;355.25;388.45;415.74;438.23;456.62;471.4;482.9;491.35;496.9;499.66;499.66;496.9;491.35;482.9;471.4;456.62;438.23;415.74;388.45;355.25;314.27;261.89;188.85;0;0;0;0;0;0;0;0;0;0;0;0;0;0;0;0;0;0;0;0;0;0;0;0;0;0;0;0;0;0;0;0;0;0;0;0;0;0;0;0;0;0;0;0;0;0;0;95.897;242.56;389.23;535.9;682.56;829.23;949.1;802.44;655.77;509.1;362.44;215.77;69.103;-77.564;-50.769;0;0;0;0;0;0;0;0;0;0;0;188.85;261.89;314.27;355.25;388.45;415.74;438.23;456.62;471.4;482.9;491.35;496.9;499.66;499.66;496.9;491.35;482.9;471.4;456.62;438.23;415.74;388.45;355.25;314.27;261.89;188.85;0;0;0;0;0;0;0;0;0;0;0;0;0;0;0;0;0;0;0;0;0;0;0;0;0;0;0;0;0;0;0;0;0;0;0;0;0;0;0;0;0;0;0;0;0;0;0;110.4;257.07;403.74;550.4;697.07;843.74;934.6;787.93;641.26;494.6;347.93;201.26;54.597;-92.07;-36.264;0;0;0;0;0;0;0;0;0;0;0;188.85;261.89;314.27;355.25;388.45;415.74;438.23;456.62;471.4;482.9;491.35;496.9;499.66;499.66;496.9;491.35;482.9;471.4;456.62;438.23;415.74;388.45;355.25;314.27;261.89;188.85;0;0;0;0;0;0;0;0;0;0;0;0;0;0;0;0;0;0;0;0;0;0;0;0;0;0;0;0;0;0;0;0;0;0;0;0;0;0;0;0;0;0;0;0;0;0;0;124.91;271.58;418.24;564.91;711.58;858.24;920.09;773.42;626.76;480.09;333.42;186.76;40.092;-106.58;-21.758;0;0;0;0;0;0;0;0;0;0;0;188.85;261.89;314.27;355.25;388.45;415.74;438.23;456.62;471.4;482.9;491.35;496.9;499.66;499.66;496.9;491.35;482.9;471.4;456.62;438.23;415.74;388.45;355.25;314.27;261.89;188.85;0;0;0;0;0;0;0;0;0;0;0;0;0;0;0;0;0;0;0;0;0;0;0;0;0;0;0;0;0;0;0;0;0;0;0;0;0;0;0;0;0;0;0;0;0;0;0;139.41;286.08;432.75;579.41;726.08;872.75;905.59;758.92;612.25;465.59;318.92;172.25;25.586;-121.08;-7.2527;0;0;0;0;0;0;0;0;0;0;0;188.85;261.89;314.27;355.25;388.45;415.74;438.23;456.62;471.4;482.9;491.35;496.9;499.66;499.66;496.9;491.35;482.9;471.4;456.62;438.23;415.74;388.45;355.25;314.27;261.89;188.85;0;0;0;0;0;0;0;0;0;0;0;0;0;0;0;0;0;0;0;0;0;0;0;0;0;0;0;0;0;0;0;0;0;0;0;0;0;0;0;0;0;0;0;0;0;0;7.2527;153.92;300.59;447.25;593.92;740.59;887.25;891.08;744.41;597.75;451.08;304.41;157.75;11.081;-135.59;7.2527;0;0;0;0;0;0;0;0;0;0;0;188.85;261.89;314.27;355.25;388.45;415.74;438.23;456.62;471.4;482.9;491.35;496.9;499.66;499.66;496.9;491.35;482.9;471.4;456.62;438.23;415.74;388.45;355.25;314.27;261.89;188.85;0;0;0;0;0;0;0;0;0;0;0;0;0;0;0;0;0;0;0;0;0;0;0;0;0;0;0;0;0;0;0;0;0;0;0;0;0;0;0;0;0;0;0;0;0;0;21.758;168.42;315.09;461.76;608.42;755.09;901.76;876.58;729.91;583.24;436.58;289.91;143.24;-3.4249;-124.91;0;0;0;0;0;0;0;0;0;0;0;0;188.85;261.89;314.27;355.25;388.45;415.74;438.23;456.62;471.4;482.9;491.35;496.9;499.66;499.66;496.9;491.35;482.9;471.4;456.62;438.23;415.74;388.45;355.25;314.27;261.89;188.85;0;0;0;0;0;0;0;0;0;0;0;0;0;0;0;0;0;0;0;0;0;0;0;0;0;0;0;0;0;0;0;0;0;0;0;0;0;0;0;0;0;0;0;0;0;0;36.264;182.93;329.6;476.26;622.93;769.6;916.26;862.07;715.4;568.74;422.07;275.4;128.74;-17.93;-110.4;0;0;0;0;0;0;0;0;0;0;0;0;188.85;261.89;314.27;355.25;388.45;415.74;438.23;456.62;471.4;482.9;491.35;496.9;499.66;499.66;496.9;491.35;482.9;471.4;456.62;438.23;415.74;388.45;355.25;314.27;261.89;188.85;0;0;0;0;0;0;0;0;0;0;0;0;0;0;0;0;0;0;0;0;0;0;0;0;0;0;0;0;0;0;0;0;0;0;0;0;0;0;0;0;0;0;0;0;0;0;50.769;197.44;344.1;490.77;637.44;784.1;930.77;847.56;700.9;554.23;407.56;260.9;114.23;-32.436;-95.897;0;0;0;0;0;0;0;0;0;0;0;0;188.85;261.89;314.27;355.25;388.45;415.74;438.23;456.62;471.4;482.9;491.35;496.9;499.66;499.66;496.9;491.35;482.9;471.4;456.62;438.23;415.74;388.45;355.25;314.27;261.89;188.85;0;0;0;0;0;0;0;0;0;0;0;0;0;0;0;0;0;0;0;0;0;0;0;0;0;0;0;0;0;0;0;0;0;0;0;0;0;0;0;0;0;0;0;0;0;0;65.275;211.94;358.61;505.27;651.94;798.61;945.27;833.06;686.39;539.73;393.06;246.39;99.725;-46.941;-81.392;0;0;0;0;0;0;0;0;0;0;0;0;188.85;261.89;314.27;355.25;388.45;415.74;438.23;456.62;471.4;482.9;491.35;496.9;499.66;499.66;496.9;491.35;482.9;471.4;456.62;438.23;415.74;388.45;355.25;314.27;261.89;188.85;0;0;0;0;0;0;0;0;0;0;0;0;0;0;0;0;0;0;0;0;0;0;0;0;0;0;0;0;0;0;0;0;0;0;0;0;0;0;0;0;0;0;0;0;0;0;79.78;226.45;373.11;519.78;666.45;813.11;959.78;818.55;671.89;525.22;378.55;231.89;85.22;-61.447;-66.886;0;0;0;0;0;0;0;0;0;0;0;188.85;261.89;314.27;355.25;388.45;415.74;438.23;456.62;471.4;482.9;491.35;496.9;499.66;499.66;496.9;491.35;482.9;471.4;456.62;438.23;415.74;388.45;355.25;314.27;261.89;188.85;0;0;0;0;0;0;0;0;0;0;0;0;0;0;0;0;0;0;0;0;0;0;0;0;0;0;0;0;0;0;0;0;0;0;0;0;0;0;0;0;0;0;0;0;0;0;0;94.286;240.95;387.62;534.29;680.95;827.62;950.71;804.05;657.38;510.71;364.05;217.38;70.714;-75.952;-52.381;0;0;0;0;0;0;0;0;0;0;0;188.85;261.89;314.27;355.25;388.45;415.74;438.23;456.62;471.4;482.9;491.35;496.9;499.66;499.66;496.9;491.35;482.9;471.4;456.62;438.23;415.74;388.45;355.25;314.27;261.89;188.85;0;0;0;0;0;0;0;0;0;0;0;0;0;0;0;0;0;0;0;0;0;0;0;0;0;0;0;0;0;0;0;0;0;0;0;0;0;0;0;0;0;0;0;0;0;0;0;108.79;255.46;402.12;548.79;695.46;842.12;936.21;789.54;642.88;496.21;349.54;202.88;56.209;-90.458;-37.875;0;0;0;0;0;0;0;0;0;0;0;188.85;261.89;314.27;355.25;388.45;415.74;438.23;456.62;471.4;482.9;491.35;496.9;499.66;499.66;496.9;491.35;482.9;471.4;456.62;438.23;415.74;388.45;355.25;314.27;261.89;188.85;0;0;0;0;0;0;0;0;0;0;0;0;0;0;0;0;0;0;0;0;0;0;0;0;0;0;0;0;0;0;0;0;0;0;0;0;0;0;0;0;0;0;0;0;0;0;0;123.3;269.96;416.63;563.3;709.96;856.63;921.7;775.04;628.37;481.7;335.04;188.37;41.703;-104.96;-23.37;0;0;0;0;0;0;0;0;0;0;0;188.85;261.89;314.27;355.25;388.45;415.74;438.23;456.62;471.4;482.9;491.35;496.9;499.66;499.66;496.9;491.35;482.9;471.4;456.62;438.23;415.74;388.45;355.25;314.27;261.89;188.85;0;0;0;0;0;0;0;0;0;0;0;0;0;0;0;0;0;0;0;0;0;0;0;0;0;0;0;0;0;0;0;0;0;0;0;0;0;0;0;0;0;0;0;0;0;0;0;137.8;284.47;431.14;577.8;724.47;871.14;907.2;760.53;613.86;467.2;320.53;173.86;27.198;-119.47;-8.8645;0;0;0;0;0;0;0;0;0;0;0;188.85;261.89;314.27;355.25;388.45;415.74;438.23;456.62;471.4;482.9;491.35;496.9;499.66;499.66;496.9;491.35;482.9;471.4;456.62;438.23;415.74;388.45;355.25;314.27;261.89;188.85;0;0;0;0;0;0;0;0;0;0;0;0;0;0;0;0;0;0;0;0;0;0;0;0;0;0;0;0;0;0;0;0;0;0;0;0;0;0;0;0;0;0;0;0;0;0;5.641;152.31;298.97;445.64;592.31;738.97;885.64;892.69;746.03;599.36;452.69;306.03;159.36;12.692;-133.97;5.641;0;0;0;0;0;0;0;0;0;0;0;188.85;261.89;314.27;355.25;388.45;415.74;438.23;456.62;471.4;482.9;491.35;496.9;499.66;499.66;496.9;491.35;482.9;471.4;456.62;438.23;415.74;388.45;355.25;314.27;261.89;188.85;0;0;0;0;0;0;0;0;0;0;0;0;0;0;0;0;0;0;0;0;0;0;0;0;0;0;0;0;0;0;0;0;0;0;0;0;0;0;0;0;0;0;0;0;0;0;20.147;166.81;313.48;460.15;606.81;753.48;900.15;878.19;731.52;584.85;438.19;291.52;144.85;-1.8132;-126.52;0;0;0;0;0;0;0;0;0;0;0;0;188.85;261.89;314.27;355.25;388.45;415.74;438.23;456.62;471.4;482.9;491.35;496.9;499.66;499.66;496.9;491.35;482.9;471.4;456.62;438.23;415.74;388.45;355.25;314.27;261.89;188.85;0;0;0;0;0;0;0;0;0;0;0;0;0;0;0;0;0;0;0;0;0;0;0;0;0;0;0;0;0;0;0;0;0;0;0;0;0;0;0;0;0;0;0;0;0;0;34.652;181.32;327.99;474.65;621.32;767.99;914.65;863.68;717.01;570.35;423.68;277.01;130.35;-16.319;-112.01;0;0;0;0;0;0;0;0;0;0;0;0;188.85;261.89;314.27;355.25;388.45;415.74;438.23;456.62;471.4;482.9;491.35;496.9;499.66;499.66;496.9;491.35;482.9;471.4;456.62;438.23;415.74;388.45;355.25;314.27;261.89;188.85;0;0;0;0;0;0;0;0;0;0;0;0;0;0;0;0;0;0;0;0;0;0;0;0;0;0;0;0;0;0;0;0;0;0;0;0;0;0;0;0;0;0;0;0;0;0;49.158;195.82;342.49;489.16;635.82;782.49;929.16;849.18;702.51;555.84;409.18;262.51;115.84;-30.824;-97.509;0;0;0;0;0;0;0;0;0;0;0;0;188.85;261.89;314.27;355.25;388.45;415.74;438.23;456.62;471.4;482.9;491.35;496.9;499.66;499.66;496.9;491.35;482.9;471.4;456.62;438.23;415.74;388.45;355.25;314.27;261.89;188.85;0;0;0;0;0;0;0;0;0;0;0;0;0;0;0;0;0;0;0;0;0;0;0;0;0;0;0;0;0;0;0;0;0;0;0;0;0;0;0;0;0;0;0;0;0;0;63.663;210.33;357;503.66;650.33;797;943.66;834.67;688;541.34;394.67;248;101.34;-45.33;-83.004;0;0;0;0;0;0;0;0;0;0;0;0;188.85;261.89;314.27;355.25;388.45;415.74;438.23;456.62;471.4;482.9;491.35;496.9;499.66;499.66;496.9;491.35;482.9;471.4;456.62;438.23;415.74;388.45;355.25;314.27;261.89;188.85;0;0;0;0;0;0;0;0;0;0;0;0;0;0;0;0;0;0;0;0;0;0;0;0;0;0;0;0;0;0;0;0;0;0;0;0;0;0;0;0;0;0;0;0;0;0;78.168;224.84;371.5;518.17;664.84;811.5;958.17;820.16;673.5;526.83;380.16;233.5;86.832;-59.835;-68.498;0;0;0;0;0;0;0;0;0;0;0;188.85;261.89;314.27;355.25;388.45;415.74;438.23;456.62;471.4;482.9;491.35;496.9;499.66;499.66;496.9;491.35;482.9;471.4;456.62;438.23;415.74;388.45;355.25;314.27;261.89;188.85;0;0;0;0;0;0;0;0;0;0;0;0;0;0;0;0;0;0;0;0;0;0;0;0;0;0;0;0;0;0;0;0;0;0;0;0;0;0;0;0;0;0;0;0;0;0;0;92.674;239.34;386.01;532.67;679.34;826.01;952.33;805.66;658.99;512.33;365.66;218.99;72.326;-74.341;-53.993;0;0;0;0;0;0;0;0;0;0;0;188.85;261.89;314.27;355.25;388.45;415.74;438.23;456.62;471.4;482.9;491.35;496.9;499.66;499.66;496.9;491.35;482.9;471.4;456.62;438.23;415.74;388.45;355.25;314.27;261.89;188.85;0;0;0;0;0;0;0;0;0;0;0;0;0;0;0;0;0;0;0;0;0;0;0;0;0;0;0;0;0;0;0;0;0;0;0;0;0;0;0;0;0;0;0;0;0;0;0;107.18;253.85;400.51;547.18;693.85;840.51;937.82;791.15;644.49;497.82;351.15;204.49;57.821;-88.846;-39.487;0;0;0;0;0;0;0;0;0;0;0;188.85;261.89;314.27;355.25;388.45;415.74;438.23;456.62;471.4;482.9;491.35;496.9;499.66;499.66;496.9;491.35;482.9;471.4;456.62;438.23;415.74;388.45;355.25;314.27;261.89;188.85;0;0;0;0;0;0;0;0;0;0;0;0;0;0;0;0;0;0;0;0;0;0;0;0;0;0;0;0;0;0;0;0;0;0;0;0;0;0;0;0;0;0;0;0;0;0;0;121.68;268.35;415.02;561.68;708.35;855.02;923.32;776.65;629.98;483.32;336.65;189.98;43.315;-103.35;-24.982;0;0;0;0;0;0;0;0;0;0;0;188.85;261.89;314.27;355.25;388.45;415.74;438.23;456.62;471.4;482.9;491.35;496.9;499.66;499.66;496.9;491.35;482.9;471.4;456.62;438.23;415.74;388.45;355.25;314.27;261.89;188.85;0

Señal normal sin ningun signo de arritmia