50
0;0;0;0;0;0;0;0;0;0;0;0;0;0;0;0;0;0;0;0;0;0;0;0;0;0;0;0;0;0;0;63.226;623.23;1183.2;706.77;146.77;63.226;0;0;0;0;314.27;415.74;471.4;496.9;496.9;471.4;415.74;314.27;0;0;0;0;0;0;0;0;0;0;0;0;0;0;0;0;0;0;0;0;0;0;0;0;0;0;0;0;0;0;0;406.45;966.45;923.55;363.55;-153.55;0;0;0;0;314.27;415.74;471.4;496.9;496.9;471.4;415.74;314.27;0;0;0;0;0;0;0;0;0;0;0;0;0;0;0;0;0;0;0;0;0;0;0;0;0;0;0;0;0;0;0;189.68;749.68;1140.3;580.32;20.323;189.68;0;0;0;0;314.27;415.74;471.4;496.9;496.9;471.4;415.74;314.27;0;0;0;0;0;0;0;0;0;0;0;0;0;0;0;0;0;0;0;0;0;0;0;0;0;0;0;0;0;0;0;532.9;1092.9;797.1;237.1;-27.097;0;0;0;0;314.27;415.74;471.4;496.9;496.9;471.4;415.74;314.27;0;0;0;0;0;0;0;0;0;0;0;0;0;0;0;0;0;0;0;0;0;0;0;0;0;0;0;0;0;0;0;316.13;876.13;1013.9;453.87;-106.13;316.13;0;0;0;314.27;415.74;471.4;496.9;496.9;471.4;415.74;314.27;0;0;0;0;0;0;0;0;0;0;0;0;0;0;0;0;0;0;0;0;0;0;0;0;0;0;0;0;0;0;0;99.355;659.35;1219.4;670.65;110.65;99.355;0;0;0;0;314.27;415.74;471.4;496.9;496.9;471.4;415.74;314.27;0;0;0;0;0;0;0;0;0;0;0;0;0;0;0;0;0;0;0;0;0;0;0;0;0;0;0;0;0;0;0;442.58;1002.6;887.42;327.42;-117.42;0;0;0;0;314.27;415.74;471.4;496.9;496.9;471.4;415.74;314.27;0;0;0;0;0;0;0;0;0;0;0;0;0;0;0;0;0;0;0;0;0;0;0;0;0;0;0;0;0;0;0;225.81;785.81;1104.2;544.19;-15.806;225.81;0;0;0;0;314.27;415.74;471.4;496.9;496.9;471.4;415.74;314.27;0;0;0;0;0;0;0;0;0;0;0;0;0;0;0;0;0;0;0;0;0;0;0;0;0;0;0;0;0;0;9.0323;569.03;1129;760.97;200.97;9.0323;0;0;0;0;314.27;415.74;471.4;496.9;496.9;471.4;415.74;314.27;0;0;0;0;0;0;0;0;0;0;0;0;0;0;0;0;0;0;0;0;0;0;0;0;0;0;0;0;0;0;0;352.26;912.26;977.74;417.74;-142.26;352.26;0;0;0;314.27;415.74;471.4;496.9;496.9;471.4;415.74;314.27;0;0;0;0;0;0;0;0;0;0;0;0;0;0;0;0;0;0;0;0;0;0;0;0;0;0;0;0;0;0;0;135.48;695.48;1194.5;634.52;74.516;135.48;0;0;0;0;314.27;415.74;471.4;496.9;496.9;471.4;415.74;314.27;0;0;0;0;0;0;0;0;0;0;0;0;0;0;0;0;0;0;0;0;0;0;0;0;0;0;0;0;0;0;0;478.71;1038.7;851.29;291.29;-81.29;0;0;0;0;314.27;415.74;471.4;496.9;496.9;471.4;415.74;314.27;0;0;0;0;0;0;0;0;0;0;0;0;0;0;0;0;0;0;0;0;0;0;0;0;0;0;0;0;0;0;0;261.94;821.94;1068.1;508.06;-51.935;261.94;0;0;0;0;314.27;415.74;471.4;496.9;496.9;471.4;415.74;314.27;0;0;0;0;0;0;0;0;0;0;0;0;0;0;0;0;0;0;0;0;0;0;0;0;0;0;0;0;0;0;45.161;605.16;1165.2;724.84;164.84;45.161;0;0;0;0;314.27;415.74;471.4;496.9;496.9;471.4;415.74;314.27;0;0;0;0;0;0;0;0;0;0;0;0;0;0;0;0;0;0;0;0;0;0;0;0;0;0;0;0;0;0;0;388.39;948.39;941.61;381.61;-171.61;0;0;0;0;314.27;415.74;471.4;496.9;496.9;471.4;415.74;314.27;0;0;0;0;0;0;0;0;0;0;0;0;0;0;0;0;0;0;0;0;0;0;0;0;0;0;0;0;0;0;0;171.61;731.61;1158.4;598.39;38.387;171.61;0;0;0;0;314.27;415.74;471.4;496.9;496.9;471.4;415.74;314.27;0;0;0;0;0;0;0;0;0;0;0;0;0;0;0;0;0;0;0;0;0;0;0;0;0;0;0;0;0;0;0;514.84;1074.8;815.16;255.16;-45.161;0;0;0;0;314.27;415.74;471.4;496.9;496.9;471.4;415.74;314.27;0;0;0;0;0;0;0;0;0;0;0;0;0;0;0;0;0;0;0;0;0;0;0;0;0;0;0;0;0;0;0;298.06;858.06;1031.9;471.94;-88.065;298.06;0;0;0;314.27;415.74;471.4;496.9;496.9;471.4;415.74;314.27;0;0;0;0;0;0;0;0;0;0;0;0;0;0;0;0;0;0;0;0;0;0;0;0;0;0;0;0;0;0;0;81.29;641.29;1201.3;688.71;128.71;81.29;0;0;0;0;314.27;415.74;471.4;496.9;496.9;471.4;415.74;314.27;0;0;0;0;0;0;0;0;0;0;0;0;0;0;0;0;0;0;0;0;0;0;0;0;0;0;0;0;0;0;0;424.52;984.52;905.48;345.48;-135.48;0;0;0;0;314.27;415.74;471.4;496.9;496.9;471.4;415.74;314.27;0;0;0;0;0;0;0;0;0;0;0;0;0;0;0;0;0;0;0;0;0;0;0;0;0;0;0;0;0;0;0;207.74;767.74;1122.3;562.26;2.2581;207.74;0;0;0;0;314.27;415.74;471.4;496.9;496.9;471.4;415.74;314.27;0;0;0;0;0;0;0;0;0;0;0;0;0;0;0;0;0;0;0;0;0;0;0;0;0;0;0;0;0;0;0;550.97;1111;779.03;219.03;-9.0323;0;0;0;0;314.27;415.74;471.4;496.9;496.9;471.4;415.74;314.27;0;0;0;0;0;0;0;0;0;0;0;0;0;0;0;0;0;0;0;0;0;0;0;0;0;0;0;0;0;0;0;334.19;894.19;995.81;435.81;-124.19;334.19;0;0;0;314.27;415.74;471.4;496.9;496.9;471.4;415.74;314.27;0;0;0;0;0;0;0;0;0;0;0;0;0;0;0;0;0;0;0;0;0;0;0;0;0;0;0;0;0;0;0;117.42;677.42;1212.6;652.58;92.581;117.42;0;0;0;0;314.27;415.74;471.4;496.9;496.9;471.4;415.74;314.27;0;0;0;0;0;0;0;0;0;0;0;0;0;0;0;0;0;0;0;0;0;0;0;0;0;0;0;0;0;0;0;460.65;1020.6;869.35;309.35;-99.355;0;0;0;0;314.27;415.74;471.4;496.9;496.9;471.4;415.74;314.27;0;0;0;0;0;0;0;0;0;0;0;0;0;0;0;0;0;0;0;0;0;0;0;0;0;0;0;0;0;0;0;243.87;803.87;1086.1;526.13;-33.871;243.87;0;0;0;0;314.27;415.74;471.4;496.9;496.9;471.4;415.74;314.27;0;0;0;0;0;0;0;0;0;0;0;0;0;0;0;0;0;0;0;0;0;0;0;0;0;0;0;0;0;0;27.097;587.1;1147.1;742.9;182.9;27.097;0;0;0;0;314.27;415.74;471.4;496.9;496.9;471.4;415.74;314.27;0;0;0;0;0;0;0;0;0;0;0;0;0;0;0;0;0;0;0;0;0;0;0;0;0;0;0;0;0;0;0;370.32;930.32;959.68;399.68;-160.32;370.32;0;0;0;314.27;415.74;471.4;496.9;496.9;471.4;415.74;314.27;0;0;0;0;0;0;0;0;0;0;0;0;0;0;0;0;0;0;0;0;0;0;0;0;0;0;0;0;0;0;0;153.55;713.55;1176.5;616.45;56.452;153.55;0;0;0;0;314.27;415.74;471.4;496.9;496.9;471.4;415.74;314.27;0;0;0;0;0;0;0;0;0;0;0;0;0;0;0;0;0;0;0;0;0;0;0;0;0;0;0;0;0;0;0;496.77;1056.8;833.23;273.23;-63.226;0;0;0;0;314.27;415.74;471.4;496.9;496.9;471.4;415.74;314.27;0;0;0;0;0;0;0;0;0;0;0;0;0;0;0;0;0;0;0;0;0;0;0;0;0;0;0;0;0;0;0;280;840;1050;490;-70;280;0;0;0;0;314.27;415.74;471.4;496.9;496.9;471.4;415.74;314.27;0;0;0;0;0;0;0;0;0;0;0;0;0;0;0;0;0;0;0;0;0;0;0;0;0;0;0;0;0;0;63.226;623.23;1183.2;706.77;146.77;63.226;0;0;0;0;314.27;415.74;471.4;496.9;496.9;471.4;415.74;314.27;0;0;0;0;0;0;0;0;0;0;0;0;0;0;0;0;0;0;0;0;0;0;0;0;0;0;0;0;0;0;0;406.45;966.45;923.55;363.55;-153.55;0;0;0;0;314.27;415.74;471.4;496.9;496.9;471.4;415.74;314.27;0;0;0;0;0;0;0;0;0;0;0;0;0;0;0;0;0;0;0;0;0;0;0;0;0;0;0;0;0;0;0;189.68;749.68;1140.3;580.32;20.323;189.68;0;0;0;0;314.27;415.74;471.4;496.9;496.9;471.4;415.74;314.27;0;0;0;0;0;0;0;0;0;0;0;0;0;0;0;0;0;0;0;0;0;0;0;0;0;0;0;0;0;0;0;532.9;1092.9;797.1;237.1;-27.097;0;0;0;0;314.27;415.74;471.4;496.9;496.9;471.4;415.74;314.27;0;0;0;0;0;0;0;0;0;0;0;0;0;0;0;0;0;0;0;0;0;0;0;0;0;0;0;0;0;0;0;316.13;876.13;1013.9;453.87;-106.13;316.13;0;0;0;314.27;415.74;471.4;496.9;496.9;471.4;415.74;314.27;0;0;0;0;0;0;0;0;0;0;0;0;0;0;0;0;0;0;0;0;0;0;0;0;0;0;0;0;0;0;0;99.355;659.35;1219.4;670.65;110.65;99.355;0;0;0;0;314.27;415.74;471.4;496.9;496.9;471.4;415.74;314.27;0;0;0;0;0;0;0;0;0;0;0;0;0;0;0;0;0;0;0;0;0;0;0;0;0;0;0;0;0;0;0;442.58;1002.6;887.42;327.42;-117.42;0;0;0;0;314.27;415.74;471.4;496.9;496.9;471.4;415.74;314.27;0;0;0;0;0;0;0;0;0;0;0;0;0;0;0;0;0;0;0;0;0;0;0;0;0;0;0;0;0;0;0;225.81;785.81;1104.2;544.19;-15.806;225.81;0;0;0;0;314.27;415.74;471.4;496.9;496.9;471.4;415.74;314.27;0;0;0;0;0;0;0;0;0;0;0;0;0;0;0;0;0;0;0;0;0;0;0;0;0;0;0;0;0;0;9.0323;569.03;1129;760.97;200.97;9.0323;0;0;0;0;314.27;415.74;471.4;496.9;496.9;471.4;415.74;314.27;0;0;0;0;0;0;0;0;0;0;0;0;0;0;0;0;0;0;0;0;0;0;0;0;0;0;0;0;0;0;0;352.26;912.26;977.74;417.74;-142.26;352.26;0;0;0;314.27;415.74;471.4;496.9;496.9;471.4;415.74;314.27;0;0;0;0;0;0;0;0;0;0;0;0;0;0;0;0;0;0;0;0;0;0;0;0;0;0;0;0;0;0;0;135.48;695.48;1194.5;634.52;74.516;135.48;0;0;0;0;314.27;415.74;471.4;496.9;496.9;471.4;415.74;314.27;0;0;0;0;0;0;0;0;0;0;0;0;0;0;0;0;0;0;0;0;0;0;0;0;0;0;0;0;0;0;0;478.71;1038.7;851.29;291.29;-81.29;0;0;0;0;314.27;415.74;471.4;496.9;496.9;471.4;415.74;314.27;0;0;0;0;0;0;0;0;0;0;0;0;0;0;0;0;0;0;0;0;0;0;0;0;0;0;0;0;0;0;0;261.94;821.94;1068.1;508.06;-51.935;261.94;0;0;0;0;314.27;415.74;471.4;496.9;496.9;471.4;415.74;314.27;0;0;0;0;0;0;0;0;0;0;0;0;0;0;0;0;0;0;0;0;0;0;0;0;0;0;0;0;0;0;45.161;605.16;1165.2;724.84;164.84;45.161;0;0;0;0;314.27;415.74;471.4;496.9;496.9;471.4;415.74;314.27;0;0;0;0;0;0;0;0;0;0;0;0;0;0;0;0;0;0;0;0;0;0;0;0;0;0;0;0;0;0;0;388.39;948.39;941.61;381.61;-171.61;0;0;0;0;314.27;415.74;471.4;496.9;496.9;471.4;415.74;314.27;0;0;0;0;0;0;0;0;0;0;0;0;0;0;0;0;0;0;0;0;0;0;0;0;0;0;0;0;0;0;0;171.61;731.61;1158.4;598.39;38.387;171.61;0;0;0;0;314.27;415.74;471.4;496.9;496.9;471.4;415.74;314.27;0;0;0;0;0;0;0;0;0;0;0;0;0;0;0;0;0;0;0;0;0;0;0;0;0;0;0;0;0;0;0;514.84;1074.8;815.16;255.16;-45.161;0;0;0;0;314.27;415.74;471.4;496.9;496.9;471.4;415.74;314.27;0;0;0;0;0;0;0;0;0;0;0;0;0;0;0;0;0;0;0;0;0;0;0;0;0;0;0;0;0;0;0;298.06;858.06;1031.9;471.94;-88.065;298.06;0;0;0;314.27;415.74;471.4;496.9;496.9;471.4;415.74;314.27;0;0;0;0;0;0;0;0;0;0;0;0;0;0;0;0;0;0;0;0;0;0;0;0;0;0;0;0;0;0;0;81.29;641.29;1201.3;688.71;128.71;81.29;0;0;0;0;314.27;415.74;471.4;496.9;496.9;471.4;415.74;314.27;0;0;0;0;0;0;0;0;0;0;0;0;0;0;0;0;0;0;0;0;0;0;0;0;0;0;0;0;0;0;0;424.52;984.52;905.48;345.48;-135.48;0;0;0;0;314.27;415.74;471.4;496.9;496.9;471.4;415.74;314.27;0;0;0;0;0;0;0;0;0;0;0;0;0;0;0;0;0;0;0;0;0;0;0;0;0;0;0;0;0;0;0;207.74;767.74;1122.3;562.26;2.2581;207.74;0;0;0;0;314.27;415.74;471.4;496.9;496.9;471.4;415.74;314.27;0;0;0;0;0;0;0;0;0;0;0;0;0;0;0;0;0;0;0;0;0;0;0;0;0;0;0;0;0;0;0;550.97;1111;779.03;219.03;-9.0323;0;0;0;0;314.27;415.74;471.4;496.9;496.9;471.4;415.74;314.27;0;0;0;0;0;0;0;0;0;0;0;0;0;0;0;0;0;0;0;0;0;0;0;0;0;0;0;0;0;0;0;334.19;894.19;995.81;435.81;-124.19;334.19;0;0;0;314.27;415.74;471.4;496.9;496.9;471.4;415.74;314.27;0;0;0;0;0;0;0;0;0;0;0;0;0;0;0;0;0;0;0;0;0;0;0;0;0;0;0;0;0;0;0;117.42;677.42;1212.6;652.58;92.581;117.42;0;0;0;0;314.27;415.74;471.4;496.9;496.9;471.4;415.74;314.27;0;0;0;0;0;0;0;0;0;0;0;0;0;0;0;0;0;0;0;0;0;0;0;0;0;0;0;0;0;0;0;460.65;1020.6;869.35;309.35;-99.355;0;0;0;0;314.27;415.74;471.4;496.9;496.9;471.4;415.74;314.27;0;0;0;0;0;0;0;0;0;0;0;0;0;0;0;0;0;0;0;0;0;0;0;0;0;0;0;0;0;0;0;243.87;803.87;1086.1;526.13;-33.871;243.87;0;0;0;0;314.27;415.74;471.4;496.9;496.9;471.4;415.74;314.27;0;0;0;0;0;0;0;0;0;0;0;0;0;0;0;0;0;0;0;0;0;0;0;0;0;0;0;0;0;0;27.097;587.1;1147.1;742.9;182.9;27.097;0;0;0;0;314.27;415.74;471.4;496.9;496.9;471.4;415.74;314.27;0;0;0;0;0;0;0;0;0;0;0;0;0;0;0;0;0;0;0;0;0;0;0;0;0;0;0;0;0;0;0;370.32;930.32;959.68;399.68;-160.32;370.32;0;0;0;314.27;415.74;471.4;496.9;496.9;471.4;415.74;314.27;0;0;0;0;0;0;0;0;0;0;0;0;0;0;0;0;0;0;0;0;0;0;0;0;0;0;0;0;0;0;0;153.55;713.55;1176.5;616.45;56.452;153.55;0;0;0;0;314.27;415.74;471.4;496.9;496.9;471.4;415.74;314.27;0;0;0;0;0;0;0;0;0;0;0;0;0;0;0;0;0;0;0;0;0;0;0;0;0;0;0;0;0;0;0;496.77;1056.8;833.23;273.23;-63.226;0;0;0;0;314.27;415.74;471.4;496.9;496.9;471.4;415.74;314.27;0;0;0;0;0;0;0;0;0;0;0;0;0;0;0;0;0;0;0;0;0;0;0;0;0;0;0;0;0;0;0;280;840;1050;490;-70;280;0;0;0;0;314.27;415.74;471.4;496.9;496.9;471.4;415.74;314.27;0;0;0;0;0;0;0;0;0;0;0;0;0;0;0;0;0;0;0;0;0;0;0;0;0;0;0;0;0;0;63.226;623.23;1183.2;706.77;146.77;63.226;0;0;0;0;314.27;415.74;471.4;496.9;496.9;471.4;415.74;314.27;0;0;0;0;0;0;0;0;0;0;0;0;0;0;0;0;0;0;0;0;0;0;0;0;0;0;0;0;0;0;0;406.45;966.45;923.55;363.55;-153.55;0;0;0;0;314.27;415.74;471.4;496.9;496.9;471.4;415.74;314.27;0;0;0;0;0;0;0;0;0;0;0;0;0;0;0;0;0;0;0;0;0;0;0;0;0;0;0;0;0;0;0;189.68;749.68;1140.3;580.32;20.323;189.68;0;0;0;0;314.27;415.74;471.4;496.9;496.9;471.4;415.74;314.27;0;0;0;0;0;0;0;0;0;0;0;0;0;0;0;0;0;0;0;0;0;0;0;0;0;0;0;0;0;0;0;532.9;1092.9;797.1;237.1;-27.097;0;0;0;0;314.27;415.74;471.4;496.9;496.9;471.4;415.74;314.27;0;0;0;0;0;0;0;0;0;0;0;0;0;0;0;0;0;0;0;0;0;0;0;0;0;0;0;0;0;0;0;316.13;876.13;1013.9;453.87;-106.13;316.13;0;0;0;314.27;415.74;471.4;496.9;496.9;471.4;415.74;314.27;0;0;0;0;0;0;0;0;0;0;0;0;0;0;0;0;0;0;0;0;0;0;0;0;0;0;0;0;0;0;0;99.355;659.35;1219.4;670.65;110.65;99.355;0;0;0;0;314.27;415.74;471.4;496.9;496.9;471.4;415.74;314.27;0;0;0;0;0;0;0;0;0;0;0;0;0;0;0;0;0;0;0;0;0;0;0;0;0;0;0;0;0;0;0;442.58;1002.6;887.42;327.42;-117.42;0;0;0;0;314.27;415.74;471.4;496.9;496.9;471.4;415.74;314.27;0;0;0;0;0;0;0;0;0;0;0;0;0;0;0;0;0;0;0;0;0;0;0;0;0;0;0;0;0;0;0;225.81;785.81;1104.2;544.19;-15.806;225.81;0;0;0;0;314.27;415.74;471.4;496.9;496.9;471.4;415.74;314.27;0;0;0;0;0;0;0;0;0;0;0;0;0;0;0;0;0;0;0;0;0;0;0;0;0;0;0;0;0;0;9.0323;569.03;1129;760.97;200.97;9.0323;0;0;0;0;314.27;415.74;471.4;496.9;496.9;471.4;415.74;314.27;0;0;0;0;0;0;0;0;0;0;0;0;0;0;0;0;0;0;0;0;0;0;0;0;0;0;0;0;0;0;0;352.26;912.26;977.74;417.74;-142.26;352.26;0;0;0;314.27;415.74;471.4;496.9;496.9;471.4;415.74;314.27;0;0;0;0;0;0;0;0;0;0;0;0;0;0;0;0;0;0;0;0;0;0;0;0;0;0;0;0;0;0;0;135.48;695.48;1194.5;634.52;74.516;135.48;0;0;0;0;314.27;415.74;471.4;496.9;496.9;471.4;415.74;314.27;0;0;0;0;0;0;0;0;0;0;0;0;0;0;0;0;0;0;0;0;0;0;0;0;0;0;0;0;0;0;0;478.71;1038.7;851.29;291.29;-81.29;0;0;0;0;314.27;415.74;471.4;496.9;496.9;471.4;415.74;314.27;0;0;0;0;0;0;0;0;0;0;0;0;0;0;0;0;0;0;0;0;0;0;0;0;0;0;0;0;0;0;0;261.94;821.94;1068.1;508.06;-51.935;261.94;0;0;0;0;314.27;415.74;471.4;496.9;496.9;471.4;415.74;314.27;0;0;0;0;0;0;0;0;0;0;0;0;0;0;0;0;0;0;0;0;0;0;0;0;0;0;0;0;0;0;45.161;605.16;1165.2;724.84;164.84;45.161;0;0;0;0;314.27;415.74;471.4;496.9;496.9;471.4;415.74;314.27;0;0;0;0;0;0;0;0;0;0;0;0;0;0;0;0;0;0;0;0;0;0;0;0;0;0;0;0;0;0;0;388.39;948.39;941.61;381.61;-171.61;0;0;0;0;314.27;415.74;471.4;496.9;496.9;471.4;415.74;314.27;0;0;0;0;0;0;0;0;0;0;0;0;0;0;0;0;0;0;0;0;0;0;0;0;0;0;0;0;0;0;0;171.61;731.61;1158.4;598.39;38.387;171.61;0;0;0;0;314.27;415.74;471.4;496.9;496.9;471.4;415.74;314.27;0;0;0;0;0;0;0;0;0;0;0;0;0;0;0;0;0;0;0;0;0;0;0;0;0;0;0;0;0;0;0;514.84;1074.8;815.16;255.16;-45.161;0;0;0;0;314.27;415.74;471.4;496.9;496.9;471.4;415.74;314.27;0;0;0;0;0;0;0;0;0;0;0;0;0;0;0;0;0;0;0;0;0;0;0;0;0;0;0;0;0;0;0;298.06;858.06;1031.9;471.94;-88.065;298.06;0;0;0;314.27;415.74;471.4;496.9;496.9;471.4;415.74;314.27;0;0;0;0;0;0;0;0;0;0;0;0;0;0;0;0;0;0;0;0;0;0;0;0;0;0;0;0;0;0;0;81.29;641.29;1201.3;688.71;128.71;81.29;0;0;0;0;314.27;415.74;471.4;496.9;496.9;471.4;415.74;314.27;0;0;0;0;0;0;0;0;0;0;0;0;0;0;0;0;0;0;0;0;0;0;0;0;0;0;0;0;0;0;0;424.52;984.52;905.48;345.48;-135.48;0;0;0;0;314.27;415.74;471.4;496.9;496.9;471.4;415.74;314.27;0;0;0;0;0;0;0;0;0;0;0;0;0;0;0;0;0;0;0;0;0;0;0;0;0;0;0;0;0;0;0;207.74;767.74;1122.3;562.26;2.2581;207.74;0;0;0;0;314.27;415.74;471.4;496.9;496.9;471.4;415.74;314.27;0;0;0;0;0;0;0;0;0;0;0;0;0;0;0;0;0;0;0;0;0;0;0;0;0;0;0;0;0;0;0;550.97;1111;779.03;219.03;-9.0323;0;0;0;0;314.27;415.74;471.4;496.9;496.9;471.4;415.74;314.27;0;0;0;0;0;0;0;0;0;0;0;0;0;0;0;0;0;0;0;0;0;0;0;0;0;0;0;0;0;0;0;334.19;894.19;995.81;435.81;-124.19;334.19;0;0;0;314.27;415.74;471.4;496.9;496.9;471.4;415.74;314.27;0;0;0;0;0;0;0;0;0;0;0;0;0;0;0;0;0;0;0;0;0;0;0;0;0;0;0;0;0;0;0;117.42;677.42;1212.6;652.58;92.581;117.42;0;0;0;0;314.27;415.74;471.4;496.9;496.9;471.4;415.74;314.27;0;0;0;0;0;0;0;0;0;0;0;0;0;0;0;0;0;0;0;0;0;0;0;0;0;0;0;0;0;0;0;460.65;1020.6;869.35;309.35;-99.355;0;0;0;0;314.27;415.74;471.4;496.9;496.9;471.4;415.74;314.27;0;0;0;0;0;0;0;0;0;0;0;0;0;0;0;0;0;0;0;0;0;0;0;0;0;0;0;0;0;0;0;243.87;803.87;1086.1;526.13;-33.871;243.87;0;0;0;0;314.27;415.74;471.4;496.9;496.9;471.4;415.74;314.27;0;0;0;0;0;0;0;0;0;0;0;0;0;0;0;0;0;0;0;0;0;0;0;0;0;0;0;0;0;0;27.097;587.1;1147.1;742.9;182.9;27.097;0;0;0;0;314.27;415.74;471.4;496.9;496.9;471.4;415.74;314.27;0;0;0;0;0;0;0;0;0;0;0;0;0;0;0;0;0;0;0;0;0;0;0;0;0;0;0;0;0;0;0;370.32;930.32;959.68;399.68;-160.32;370.32;0;0;0;314.27;415.74;471.4;496.9;496.9;471.4;415.74;314.27;0;0;0;0;0;0;0;0;0;0;0;0;0;0;0;0;0;0;0;0;0;0;0;0;0;0;0;0;0;0;0;153.55;713.55;1176.5;616.45;56.452;153.55;0;0;0;0;314.27;415.74;471.4;496.9;496.9;471.4;415.74;314.27;0;0;0;0;0;0;0;0;0;0;0;0;0;0;0;0;0;0;0;0;0;0;0;0;0;0;0;0;0;0;0;496.77;1056.8;833.23;273.23;-63.226;0;0;0;0;314.27;415.74;471.4;496.9;496.9;471.4;415.74;314.27;0;0;0;0;0;0;0;0;0;0;0;0;0;0;0;0;0;0;0;0;0;0;0;0;0;0;0;0;0;0;0;280;840;1050;490;-70;280;0;0;0;0;314.27;415.74;471.4;496.9;496.9;471.4;415.74;314.27;0;0;0;0;0;0;0;0;0;0;0;0;0;0;0;0;0;0;0;0;0;0;0;0;0;0;0;0;0;0;63.226;623.23;1183.2;706.77;146.77;63.226;0;0;0;0;314.27;415.74;471.4;496.9;496.9;471.4;415.74;314.27;0;0;0;0;0;0;0;0;0;0;0;0;0;0;0;0;0;0;0;0;0;0;0;0;0;0;0;0;0;0;0;406.45;966.45;923.55;363.55;-153.55;0;0;0;0;314.27;415.74;471.4;496.9;496.9;471.4;415.74;314.27;0;0;0;0;0;0;0;0;0;0;0;0;0;0;0;0;0;0;0;0;0;0;0;0;0;0;0;0;0;0;0;189.68;749.68;1140.3;580.32;20.323;189.68;0;0;0;0;314.27;415.74;471.4;496.9;496.9;471.4;415.74;314.27;0;0;0;0;0;0;0;0;0;0;0;0;0;0;0;0;0;0;0;0;0;0;0;0;0;0;0;0;0;0;0;532.9;1092.9;797.1;237.1;-27.097;0;0;0;0;314.27;415.74;471.4;496.9;496.9;471.4;415.74;314.27;0;0;0;0;0;0;0;0;0;0;0;0;0;0;0;0;0;0;0;0;0;0;0;0;0;0;0;0;0;0;0;316.13;876.13;1013.9;453.87;-106.13;316.13;0;0;0;314.27;415.74;471.4;496.9;496.9;471.4;415.74;314.27;0;0;0;0;0;0;0;0;0;0;0;0;0;0;0;0;0;0;0;0;0;0;0;0;0;0;0;0;0;0;0;99.355;659.35;1219.4;670.65;110.65;99.355;0;0;0;0;314.27;415.74;471.4;496.9;496.9;471.4;415.74;314.27;0;0;0;0;0;0;0;0;0;0;0;0;0;0;0;0;0;0;0;0;0;0;0;0;0;0;0;0;0;0;0;442.58;1002.6;887.42;327.42;-117.42;0;0;0;0;314.27;415.74;471.4;496.9;496.9;471.4;415.74;314.27;0;0;0;0;0;0;0;0;0;0;0;0;0;0;0;0;0;0;0;0;0;0;0;0;0;0;0;0;0;0;0;225.81;785.81;1104.2;544.19;-15.806;225.81;0;0;0;0;314.27;415.74;471.4;496.9;496.9;471.4;415.74;314.27;0;0;0;0;0;0;0;0;0;0;0;0;0;0;0;0;0;0;0;0;0;0;0;0;0;0;0;0;0;0;9.0323;569.03;1129;760.97;200.97;9.0323;0;0;0;0;314.27;415.74;471.4;496.9;496.9;471.4;415.74;314.27;0;0;0;0;0;0;0;0;0;0;0;0;0;0;0;0;0;0;0;0;0;0;0;0;0;0;0;0;0;0;0;352.26;912.26;977.74;417.74;-142.26;352.26;0;0;0;314.27;415.74;471.4;496.9;496.9;471.4;415.74;314.27;0;0;0;0;0;0;0;0;0;0;0;0;0;0;0;0;0;0;0;0;0;0;0;0;0;0;0;0;0;0;0;135.48;695.48;1194.5;634.52;74.516;135.48;0;0;0;0;314.27;415.74;471.4;496.9;496.9;471.4;415.74;314.27;0;0;0;0;0;0;0;0;0;0;0;0;0;0;0;0;0;0;0;0;0;0;0;0;0;0;0;0;0;0;0;478.71;1038.7;851.29;291.29;-81.29;0;0;0;0;314.27;415.74;471.4;496.9;496.9;471.4;415.74;314.27;0;0;0;0;0;0;0;0;0;0;0;0;0;0;0;0;0;0;0;0;0;0;0;0;0;0;0;0;0;0;0;261.94;821.94;1068.1;508.06;-51.935;261.94;0;0;0;0;314.27;415.74;471.4;496.9;496.9;471.4;415.74;314.27;0;0;0;0;0;0;0;0;0;0;0;0;0;0;0;0;0;0;0;0;0;0;0;0;0;0;0;0;0;0;45.161;605.16;1165.2;724.84;164.84;45.161;0;0;0;0;314.27;415.74;471.4;496.9;496.9;471.4;415.74;314.27;0;0;0;0;0;0;0;0;0;0;0;0;0;0;0;0;0;0;0;0;0;0;0;0;0;0;0;0;0;0;0;388.39;948.39;941.61;381.61;-171.61;0;0;0;0;314.27;415.74;471.4;496.9;496.9;471.4;415.74;314.27;0;0;0;0;0;0;0;0;0;0;0;0;0;0;0;0;0;0;0;0;0;0;0;0;0;0;0;0;0;0;0;171.61;731.61;1158.4;598.39;38.387;171.61;0;0;0;0;314.27;415.74;471.4;496.9;496.9;471.4;415.74;314.27;0;0;0;0;0;0;0;0;0;0;0;0;0;0;0;0;0;0;0;0;0;0;0;0;0;0;0;0;0;0;0;514.84;1074.8;815.16;255.16;-45.161;0;0;0;0;314.27;415.74;471.4;496.9;496.9;471.4;415.74;314.27;0;0;0;0;0;0;0;0;0;0;0;0;0;0;0;0;0;0;0;0;0;0;0;0;0;0;0;0;0;0;0;298.06;858.06;1031.9;471.94;-88.065;298.06;0;0;0;314.27;415.74;471.4;496.9;496.9;471.4;415.74;314.27;0;0;0;0;0;0;0;0;0;0;0;0;0;0;0;0;0;0;0;0;0;0;0;0;0;0;0;0;0;0;0;81.29;641.29;1201.3;688.71;128.71;81.29;0;0;0;0;314.27;415.74;471.4;496.9;496.9;471.4;415.74;314.27;0;0;0;0;0;0;0;0;0;0;0;0;0;0;0;0;0;0;0;0;0;0;0;0;0;0;0;0;0;0;0;424.52;984.52;905.48;345.48;-135.48;0;0;0;0;314.27;415.74;471.4;496.9;496.9;471.4;415.74;314.27;0

Se observa una forma compatible con una fibrilacion auricular a partir del segundo 15